#NOTE: MSDs should be divided by the temperature.
#NOTE: MSDs have been divided by 2 or 10 (i.e., the viscosity computed from all components).
#Time	MSD_xx	MSD_yy	MSD_zz	MSD_xy	MSD_xz	MSD_yz	MSD_off	MSD_all	MSD_bulkvisc
 10 1.01976e+09 1.01898e+09 1.02203e+09 1.02188e+09 1.02201e+09 1.01756e+09 1.02048e+09 1.02039e+09 1.16025e+09
 20 3.25734e+09 3.25512e+09 3.26462e+09 3.26197e+09 3.26284e+09 3.2477e+09 3.25751e+09 3.25811e+09 4.31821e+09
 30 6.76672e+09 6.76395e+09 6.78353e+09 6.77793e+09 6.78145e+09 6.74666e+09 6.76868e+09 6.76977e+09 9.30483e+09
 40 1.10513e+10 1.10488e+10 1.10813e+10 1.10718e+10 1.1082e+10 1.10177e+10 1.10572e+10 1.10585e+10 1.57776e+10
 50 1.5717e+10 1.57146e+10 1.57627e+10 1.57488e+10 1.57718e+10 1.56671e+10 1.57292e+10 1.57301e+10 2.34514e+10
 60 2.0921e+10 2.09165e+10 2.09852e+10 2.09684e+10 2.10116e+10 2.08514e+10 2.09438e+10 2.09426e+10 3.22126e+10
 70 2.6098e+10 2.60879e+10 2.61809e+10 2.61607e+10 2.62334e+10 2.60046e+10 2.61329e+10 2.61287e+10 4.17207e+10
 80 3.16137e+10 3.15941e+10 3.17182e+10 3.16948e+10 3.1808e+10 3.14943e+10 3.16657e+10 3.16562e+10 5.19326e+10
 90 3.71443e+10 3.71119e+10 3.72727e+10 3.72414e+10 3.74089e+10 3.69967e+10 3.72156e+10 3.71999e+10 6.25782e+10
 100 4.28501e+10 4.28018e+10 4.30063e+10 4.29607e+10 4.31972e+10 4.26739e+10 4.29439e+10 4.29208e+10 7.35751e+10
 110 4.88097e+10 4.87436e+10 4.89995e+10 4.89316e+10 4.92503e+10 4.86056e+10 4.89292e+10 4.88979e+10 8.48354e+10
 120 5.48697e+10 5.47844e+10 5.50977e+10 5.5e+10 5.54106e+10 5.46385e+10 5.50164e+10 5.49767e+10 9.62192e+10
 130 6.13228e+10 6.12192e+10 6.15966e+10 6.14655e+10 6.19732e+10 6.10678e+10 6.15022e+10 6.14531e+10 1.07768e+11
 140 6.78905e+10 6.77709e+10 6.82167e+10 6.80488e+10 6.86557e+10 6.76167e+10 6.81071e+10 6.8048e+10 1.19342e+11
 150 7.47837e+10 7.46523e+10 7.51707e+10 7.49668e+10 7.56724e+10 7.44977e+10 7.50457e+10 7.4975e+10 1.30995e+11
 160 8.18504e+10 8.17128e+10 8.23071e+10 8.20682e+10 8.28699e+10 8.15592e+10 8.21658e+10 8.20822e+10 1.42665e+11
 170 8.90822e+10 8.89431e+10 8.96171e+10 8.93458e+10 9.02389e+10 8.87903e+10 8.94583e+10 8.93607e+10 1.54351e+11
 180 9.65472e+10 9.64125e+10 9.71711e+10 9.68714e+10 9.78495e+10 9.62593e+10 9.69934e+10 9.68801e+10 1.66086e+11
 190 1.04084e+11 1.03957e+11 1.04805e+11 1.0448e+11 1.05538e+11 1.03803e+11 1.04607e+11 1.04477e+11 1.77824e+11
 200 1.11875e+11 1.1176e+11 1.12704e+11 1.12357e+11 1.13489e+11 1.11602e+11 1.12483e+11 1.12335e+11 1.89638e+11
 210 1.19773e+11 1.1967e+11 1.20718e+11 1.20348e+11 1.21554e+11 1.1951e+11 1.20471e+11 1.20304e+11 2.01486e+11
 220 1.279e+11 1.27809e+11 1.28971e+11 1.28576e+11 1.29856e+11 1.2765e+11 1.28694e+11 1.28507e+11 2.13419e+11
 230 1.36227e+11 1.36151e+11 1.37436e+11 1.37012e+11 1.38368e+11 1.35995e+11 1.37125e+11 1.36917e+11 2.25436e+11
 240 1.44738e+11 1.44677e+11 1.46093e+11 1.45636e+11 1.4707e+11 1.44528e+11 1.45745e+11 1.45515e+11 2.37547e+11
 250 1.53506e+11 1.53464e+11 1.55018e+11 1.54524e+11 1.56039e+11 1.53325e+11 1.5463e+11 1.54376e+11 2.49786e+11
 250 1.53299e+11 1.53782e+11 1.55037e+11 1.54746e+11 1.55754e+11 1.53181e+11 1.5456e+11 1.54352e+11 2.50399e+11
 500 4.17816e+11 4.18317e+11 4.24202e+11 4.24494e+11 4.27343e+11 4.17961e+11 4.23266e+11 4.22004e+11 6.05799e+11
 750 7.50092e+11 7.48031e+11 7.63295e+11 7.62948e+11 7.70429e+11 7.4993e+11 7.61103e+11 7.58184e+11 1.05904e+12
 1000 1.13704e+12 1.13072e+12 1.15757e+12 1.15642e+12 1.1695e+12 1.13462e+12 1.15351e+12 1.14882e+12 1.58861e+12
 1250 1.56887e+12 1.55728e+12 1.59655e+12 1.5956e+12 1.61373e+12 1.56056e+12 1.58996e+12 1.58367e+12 2.17414e+12
 1500 2.03708e+12 2.01882e+12 2.07157e+12 2.07041e+12 2.0947e+12 2.02019e+12 2.06177e+12 2.05405e+12 2.81379e+12
 1750 2.53437e+12 2.50943e+12 2.57736e+12 2.57572e+12 2.60549e+12 2.50837e+12 2.56319e+12 2.55407e+12 3.49574e+12
 2000 3.0565e+12 3.02374e+12 3.11155e+12 3.10845e+12 3.14194e+12 3.01996e+12 3.09012e+12 3.07964e+12 4.21394e+12
 2250 3.59737e+12 3.55509e+12 3.66941e+12 3.6646e+12 3.69876e+12 3.55192e+12 3.63843e+12 3.62597e+12 4.96576e+12
 2500 4.15353e+12 4.10259e+12 4.24835e+12 4.24402e+12 4.27366e+12 4.10148e+12 4.20638e+12 4.19109e+12 5.74618e+12
 2750 4.72123e+12 4.66253e+12 4.84608e+12 4.84327e+12 4.86452e+12 4.66622e+12 4.79134e+12 4.77211e+12 6.55008e+12
 3000 5.29913e+12 5.23106e+12 5.46053e+12 5.46025e+12 5.46861e+12 5.24197e+12 5.39028e+12 5.36626e+12 7.37786e+12
 3250 5.88788e+12 5.80851e+12 6.08791e+12 6.09278e+12 6.08426e+12 5.8283e+12 6.00178e+12 5.97231e+12 8.22824e+12
 3500 6.48667e+12 6.3937e+12 6.72674e+12 6.73938e+12 6.71126e+12 6.42331e+12 6.62465e+12 6.58907e+12 9.09616e+12
 3750 7.09253e+12 6.98328e+12 7.37265e+12 7.40088e+12 7.3493e+12 7.02465e+12 7.25828e+12 7.21476e+12 9.97881e+12
 4000 7.70386e+12 7.57773e+12 8.02699e+12 8.07641e+12 7.99489e+12 7.63398e+12 7.90176e+12 7.84887e+12 1.08753e+13
 4250 8.31972e+12 8.17318e+12 8.68825e+12 8.76368e+12 8.64536e+12 8.25079e+12 8.55328e+12 8.48945e+12 1.17821e+13
 4500 8.93858e+12 8.77119e+12 9.35529e+12 9.45982e+12 9.30183e+12 8.8736e+12 9.21175e+12 9.13573e+12 1.27003e+13
 4750 9.55993e+12 9.37238e+12 1.00288e+13 1.01654e+13 9.96544e+12 9.50131e+12 9.8774e+12 9.78792e+12 1.36276e+13
 5000 1.01847e+13 9.97687e+12 1.07085e+13 1.08779e+13 1.0635e+13 1.01318e+13 1.05482e+13 1.04449e+13 1.45618e+13
 5250 1.08123e+13 1.05822e+13 1.13942e+13 1.15968e+13 1.13082e+13 1.07632e+13 1.12227e+13 1.11055e+13 1.55067e+13
 5500 1.14429e+13 1.11883e+13 1.20854e+13 1.23195e+13 1.19851e+13 1.13964e+13 1.19003e+13 1.17691e+13 1.64595e+13
 5750 1.20748e+13 1.17955e+13 1.27793e+13 1.30451e+13 1.26681e+13 1.20331e+13 1.25821e+13 1.24359e+13 1.74202e+13
 6000 1.27066e+13 1.2404e+13 1.34754e+13 1.37729e+13 1.33556e+13 1.2673e+13 1.32671e+13 1.31051e+13 1.83893e+13
 6250 1.3338e+13 1.30144e+13 1.41725e+13 1.45035e+13 1.40465e+13 1.33141e+13 1.39547e+13 1.37761e+13 1.93629e+13
 6250 1.30973e+13 1.31034e+13 1.43774e+13 1.47333e+13 1.37002e+13 1.34125e+13 1.39487e+13 1.37796e+13 1.94971e+13
 12500 2.94549e+13 2.86001e+13 3.23445e+13 3.40056e+13 3.18194e+13 2.97857e+13 3.18702e+13 3.11754e+13 4.54395e+13
 18750 4.60829e+13 4.54567e+13 5.24366e+13 5.46296e+13 4.99042e+13 4.6609e+13 5.03809e+13 4.94254e+13 7.49974e+13
 25000 6.33456e+13 6.26536e+13 7.29653e+13 7.49983e+13 6.80797e+13 6.29528e+13 6.86769e+13 6.77347e+13 1.06912e+14
 31250 8.05429e+13 8.08628e+13 9.33674e+13 9.43646e+13 8.7393e+13 7.90621e+13 8.69399e+13 8.61337e+13 1.40567e+14
 37500 9.80454e+13 9.90916e+13 1.13809e+14 1.12857e+14 1.07264e+14 9.64274e+13 1.05516e+14 1.04769e+14 1.74265e+14
 43750 1.14887e+14 1.15348e+14 1.33586e+14 1.31357e+14 1.27465e+14 1.15821e+14 1.24881e+14 1.23438e+14 2.09733e+14
 50000 1.30858e+14 1.31239e+14 1.52334e+14 1.49758e+14 1.47829e+14 1.36064e+14 1.4455e+14 1.41988e+14 2.44726e+14
 56250 1.46673e+14 1.46823e+14 1.70762e+14 1.67992e+14 1.67906e+14 1.55077e+14 1.63659e+14 1.60096e+14 2.79897e+14
 62500 1.61587e+14 1.63091e+14 1.88791e+14 1.85731e+14 1.90432e+14 1.72598e+14 1.8292e+14 1.78215e+14 3.1391e+14
 68750 1.76268e+14 1.79824e+14 2.07597e+14 2.04146e+14 2.13309e+14 1.89744e+14 2.024e+14 1.96598e+14 3.49556e+14
 75000 1.9137e+14 1.96651e+14 2.2656e+14 2.23936e+14 2.36234e+14 2.05833e+14 2.22001e+14 2.15145e+14 3.86767e+14
 81250 2.07094e+14 2.13785e+14 2.45711e+14 2.44533e+14 2.6009e+14 2.21738e+14 2.4212e+14 2.34151e+14 4.26379e+14
 87500 2.22759e+14 2.30282e+14 2.65172e+14 2.64827e+14 2.84421e+14 2.37032e+14 2.62093e+14 2.53018e+14 4.65116e+14
 93750 2.37774e+14 2.46597e+14 2.8453e+14 2.83788e+14 3.09399e+14 2.52571e+14 2.81919e+14 2.71672e+14 5.04785e+14
 100000 2.52175e+14 2.63379e+14 3.02613e+14 3.02051e+14 3.34179e+14 2.67358e+14 3.01196e+14 2.89806e+14 5.45653e+14
 106250 2.67369e+14 2.80098e+14 3.20389e+14 3.20002e+14 3.58298e+14 2.82108e+14 3.20136e+14 3.07796e+14 5.88865e+14
 112500 2.824e+14 2.95483e+14 3.38871e+14 3.38175e+14 3.83358e+14 2.96656e+14 3.39396e+14 3.25871e+14 6.32799e+14
 118750 2.97396e+14 3.11749e+14 3.59062e+14 3.56965e+14 4.09964e+14 3.10714e+14 3.59214e+14 3.44623e+14 6.78214e+14
 125000 3.13226e+14 3.28347e+14 3.79827e+14 3.755e+14 4.37425e+14 3.24692e+14 3.79205e+14 3.6371e+14 7.24276e+14
 131250 3.28656e+14 3.44813e+14 4.00355e+14 3.94957e+14 4.66351e+14 3.38717e+14 4.00009e+14 3.83182e+14 7.70319e+14
 137500 3.43593e+14 3.6087e+14 4.20891e+14 4.14641e+14 4.96068e+14 3.52272e+14 4.20994e+14 4.02643e+14 8.17658e+14
 143750 3.5799e+14 3.76901e+14 4.41256e+14 4.35117e+14 5.258e+14 3.65778e+14 4.42232e+14 4.22158e+14 8.66494e+14
 150000 3.70585e+14 3.93122e+14 4.62003e+14 4.5594e+14 5.56628e+14 3.78515e+14 4.63695e+14 4.41645e+14 9.16027e+14
 156250 3.82632e+14 4.08949e+14 4.81472e+14 4.75667e+14 5.87732e+14 3.91149e+14 4.84849e+14 4.6065e+14 9.64602e+14
 156250 4.77212e+14 4.51957e+14 5.06164e+14 4.1375e+14 6.71805e+14 3.39524e+14 4.75026e+14 4.76393e+14 1.13202e+15
 312500 7.99143e+14 8.88024e+14 9.29707e+14 1.04079e+15 1.48147e+15 6.35018e+14 1.05243e+15 9.80373e+14 2.62532e+15
 468750 1.00164e+15 1.35229e+15 1.29567e+15 1.53547e+15 2.23578e+15 8.08275e+14 1.52651e+15 1.40252e+15 3.90503e+15
 625000 1.12357e+15 1.88646e+15 1.72859e+15 1.86895e+15 2.89792e+15 9.10037e+14 1.8923e+15 1.7672e+15 4.68686e+15
 781250 1.17728e+15 2.61003e+15 2.40826e+15 2.19247e+15 3.52678e+15 1.02273e+15 2.24733e+15 2.17447e+15 5.62542e+15
 937500 1.23228e+15 3.28689e+15 2.97776e+15 2.55434e+15 4.49061e+15 1.16126e+15 2.7354e+15 2.64083e+15 6.77313e+15
 1.09375e+06 1.28739e+15 4.09164e+15 3.68032e+15 2.78306e+15 5.42196e+15 1.40828e+15 3.20443e+15 3.13057e+15 7.27299e+15
 1.25e+06 1.49953e+15 5.04189e+15 4.53969e+15 3.0178e+15 6.16088e+15 1.67127e+15 3.61665e+15 3.64747e+15 7.11584e+15
 1.40625e+06 1.6822e+15 6.15718e+15 5.47612e+15 3.2749e+15 6.77739e+15 1.81845e+15 3.95691e+15 4.14955e+15 6.91738e+15
 1.5625e+06 1.93202e+15 7.17876e+15 6.6945e+15 3.52084e+15 7.01429e+15 1.83242e+15 4.12251e+15 4.58088e+15 6.78434e+15
 1.71875e+06 2.3044e+15 8.40097e+15 7.89938e+15 3.66431e+15 7.27078e+15 1.90232e+15 4.27914e+15 5.04812e+15 6.88602e+15
 1.875e+06 2.45141e+15 9.74122e+15 9.2452e+15 3.85665e+15 7.57797e+15 2.035e+15 4.48987e+15 5.5523e+15 6.87615e+15
 2.03125e+06 2.51301e+15 1.11481e+16 1.04341e+16 4.03813e+15 7.63715e+15 2.07051e+15 4.58193e+15 5.96185e+15 6.93643e+15
 2.1875e+06 2.76189e+15 1.23536e+16 1.1749e+16 4.14158e+15 7.64724e+15 2.00666e+15 4.59849e+15 6.34103e+15 7.30326e+15
 2.34375e+06 2.92726e+15 1.36581e+16 1.3329e+16 4.24743e+15 7.15231e+15 1.87901e+15 4.42625e+15 6.64434e+15 7.87478e+15
 2.5e+06 3.11416e+15 1.5247e+16 1.48925e+16 4.41924e+15 6.5777e+15 1.75066e+15 4.2492e+15 6.98333e+15 8.37089e+15
 2.65625e+06 3.09703e+15 1.6811e+16 1.64531e+16 4.69509e+15 6.05305e+15 1.55719e+15 4.10178e+15 7.30921e+15 8.39594e+15
 2.8125e+06 3.29894e+15 1.83156e+16 1.82478e+16 4.99125e+15 5.40725e+15 1.47147e+15 3.95666e+15 7.68898e+15 8.37703e+15
 2.96875e+06 3.47099e+15 1.97623e+16 2.01103e+16 5.43451e+15 4.94399e+15 1.36666e+15 3.91505e+15 8.12817e+15 9.09837e+15
 3.125e+06 3.70074e+15 2.15011e+16 2.17475e+16 6.06622e+15 4.68678e+15 1.33467e+15 4.02923e+15 8.67744e+15 9.30125e+15
 3.28125e+06 3.88929e+15 2.32452e+16 2.36335e+16 6.68721e+15 4.38082e+15 1.25021e+15 4.10608e+15 9.23271e+15 9.53099e+15
 3.4375e+06 3.83609e+15 2.49652e+16 2.54248e+16 6.94715e+15 4.29177e+15 1.31253e+15 4.18382e+15 9.74043e+15 9.64588e+15
 3.59375e+06 3.93881e+15 2.67526e+16 2.71026e+16 7.26853e+15 4.21236e+15 1.46184e+15 4.31424e+15 1.02944e+16 9.80536e+15
 3.75e+06 3.99044e+15 2.84676e+16 2.89425e+16 7.88415e+15 4.33467e+15 1.62871e+15 4.61584e+15 1.09563e+16 1.03375e+16
 3.90625e+06 3.96439e+15 3.02669e+16 3.07482e+16 8.2001e+15 4.94782e+15 1.66063e+15 4.93619e+15 1.16256e+16 1.05977e+16
 3.90625e+06 4.71992e+15 1.95162e+16 2.44285e+16 3.15939e+15 3.32331e+15 1.83041e+15 2.77104e+15 8.15124e+15 4.34716e+15
 7.8125e+06 1.69046e+15 7.06219e+16 5.04597e+16 1.25454e+16 1.92181e+15 4.6401e+15 6.36909e+15 2.01911e+16 1.60933e+15
