#NOTE: MSDs should be divided by the temperature.
#NOTE: MSDs have been divided by 2 or 10 (i.e., the viscosity computed from all components).
#Time	MSD_xx	MSD_yy	MSD_zz	MSD_xy	MSD_xz	MSD_yz	MSD_off	MSD_all	MSD_bulkvisc
 10 1.01723e+09 1.02167e+09 1.01934e+09 1.0248e+09 1.02063e+09 1.02052e+09 1.02198e+09 1.02095e+09 1.16782e+09
 20 3.24847e+09 3.26169e+09 3.25409e+09 3.27043e+09 3.26297e+09 3.26263e+09 3.26534e+09 3.26111e+09 4.34822e+09
 30 6.74702e+09 6.77518e+09 6.75776e+09 6.79434e+09 6.77921e+09 6.77983e+09 6.78446e+09 6.77467e+09 9.37146e+09
 40 1.10162e+10 1.10627e+10 1.10312e+10 1.10963e+10 1.10734e+10 1.1076e+10 1.10819e+10 1.10638e+10 1.58941e+10
 50 1.56623e+10 1.57298e+10 1.5679e+10 1.57793e+10 1.57533e+10 1.57582e+10 1.57636e+10 1.57343e+10 2.36297e+10
 60 2.08411e+10 2.09339e+10 2.08574e+10 2.10026e+10 2.09754e+10 2.09826e+10 2.09868e+10 2.09431e+10 3.24614e+10
 70 2.59887e+10 2.61079e+10 2.60006e+10 2.61947e+10 2.61771e+10 2.61853e+10 2.61857e+10 2.61244e+10 4.20453e+10
 80 3.14712e+10 3.16208e+10 3.14772e+10 3.17284e+10 3.17226e+10 3.17319e+10 3.17276e+10 3.16458e+10 5.23339e+10
 90 3.69663e+10 3.71467e+10 3.69626e+10 3.72774e+10 3.72891e+10 3.72987e+10 3.72884e+10 3.71831e+10 6.30536e+10
 100 4.26345e+10 4.2848e+10 4.26195e+10 4.30058e+10 4.30363e+10 4.3046e+10 4.30294e+10 4.28979e+10 7.41196e+10
 110 4.85545e+10 4.88031e+10 4.85266e+10 4.8996e+10 4.90426e+10 4.90522e+10 4.90303e+10 4.88694e+10 8.54419e+10
 120 5.45735e+10 5.48586e+10 5.45319e+10 5.50937e+10 5.51563e+10 5.51651e+10 5.51384e+10 5.49449e+10 9.68787e+10
 130 6.09846e+10 6.13104e+10 6.09317e+10 6.15991e+10 6.16701e+10 6.1679e+10 6.16494e+10 6.14198e+10 1.0847e+11
 140 6.75108e+10 6.78791e+10 6.7448e+10 6.82316e+10 6.83088e+10 6.83176e+10 6.8286e+10 6.80166e+10 1.20076e+11
 150 7.4364e+10 7.47784e+10 7.4296e+10 7.52061e+10 7.52816e+10 7.5294e+10 7.52606e+10 7.49481e+10 1.31752e+11
 160 8.1393e+10 8.18548e+10 8.13229e+10 8.23672e+10 8.2438e+10 8.24563e+10 8.24205e+10 8.20617e+10 1.43437e+11
 170 8.85889e+10 8.91001e+10 8.85212e+10 8.97035e+10 8.97673e+10 8.97968e+10 8.97559e+10 8.93482e+10 1.55134e+11
 180 9.60189e+10 9.65827e+10 9.5959e+10 9.7282e+10 9.73352e+10 9.73817e+10 9.7333e+10 9.68745e+10 1.66878e+11
 190 1.0352e+11 1.04139e+11 1.03471e+11 1.04935e+11 1.04981e+11 1.05048e+11 1.04988e+11 1.04477e+11 1.78622e+11
 200 1.11274e+11 1.11952e+11 1.11242e+11 1.12846e+11 1.12883e+11 1.12975e+11 1.12901e+11 1.12336e+11 1.90441e+11
 210 1.19132e+11 1.1987e+11 1.19118e+11 1.20864e+11 1.20894e+11 1.21012e+11 1.20923e+11 1.20303e+11 2.02295e+11
 220 1.27216e+11 1.28016e+11 1.27224e+11 1.29114e+11 1.29137e+11 1.29281e+11 1.29177e+11 1.285e+11 2.14237e+11
 230 1.355e+11 1.36362e+11 1.35531e+11 1.37569e+11 1.37584e+11 1.37752e+11 1.37635e+11 1.369e+11 2.26271e+11
 240 1.43967e+11 1.4489e+11 1.4402e+11 1.46211e+11 1.46222e+11 1.46409e+11 1.46281e+11 1.45485e+11 2.38405e+11
 250 1.52693e+11 1.53678e+11 1.5277e+11 1.5512e+11 1.55123e+11 1.5533e+11 1.55191e+11 1.54333e+11 2.50676e+11
 250 1.52565e+11 1.53448e+11 1.5262e+11 1.54942e+11 1.55173e+11 1.55098e+11 1.55071e+11 1.54194e+11 2.52276e+11
 500 4.15267e+11 4.18181e+11 4.16385e+11 4.24387e+11 4.23111e+11 4.25724e+11 4.24407e+11 4.21289e+11 6.0918e+11
 750 7.44983e+11 7.49784e+11 7.46569e+11 7.63471e+11 7.58549e+11 7.65469e+11 7.62496e+11 7.56343e+11 1.05824e+12
 1000 1.12821e+12 1.13433e+12 1.12997e+12 1.15679e+12 1.1479e+12 1.15745e+12 1.15405e+12 1.14476e+12 1.58259e+12
 1250 1.55667e+12 1.56235e+12 1.55747e+12 1.59268e+12 1.58065e+12 1.59142e+12 1.58825e+12 1.57648e+12 2.1642e+12
 1500 2.02184e+12 2.02368e+12 2.02156e+12 2.06293e+12 2.04911e+12 2.05762e+12 2.05655e+12 2.04288e+12 2.80217e+12
 1750 2.51841e+12 2.51374e+12 2.51509e+12 2.56001e+12 2.54686e+12 2.55113e+12 2.55267e+12 2.5379e+12 3.48361e+12
 2000 3.04184e+12 3.02773e+12 3.0338e+12 3.07914e+12 3.0675e+12 3.06882e+12 3.07182e+12 3.05688e+12 4.20581e+12
 2250 3.59003e+12 3.56203e+12 3.57242e+12 3.61831e+12 3.61029e+12 3.60496e+12 3.61119e+12 3.59664e+12 4.96171e+12
 2500 4.15763e+12 4.11411e+12 4.12793e+12 4.17466e+12 4.1714e+12 4.15725e+12 4.16777e+12 4.15395e+12 5.75151e+12
 2750 4.74154e+12 4.68202e+12 4.69781e+12 4.74743e+12 4.7473e+12 4.72297e+12 4.73924e+12 4.72639e+12 6.5701e+12
 3000 5.33876e+12 5.26378e+12 5.2816e+12 5.33557e+12 5.3359e+12 5.29928e+12 5.32358e+12 5.31204e+12 7.41352e+12
 3250 5.94852e+12 5.85853e+12 5.87879e+12 5.93816e+12 5.93445e+12 5.88459e+12 5.91907e+12 5.90955e+12 8.27959e+12
 3500 6.56814e+12 6.46724e+12 6.48785e+12 6.55599e+12 6.54429e+12 6.47854e+12 6.52627e+12 6.51886e+12 9.16775e+12
 3750 7.19408e+12 7.08726e+12 7.10676e+12 7.18716e+12 7.16421e+12 7.08256e+12 7.14464e+12 7.13853e+12 1.00773e+13
 4000 7.82856e+12 7.71763e+12 7.73408e+12 7.8285e+12 7.79158e+12 7.69422e+12 7.77143e+12 7.7669e+12 1.10065e+13
 4250 8.46977e+12 8.35484e+12 8.36797e+12 8.48059e+12 8.42529e+12 8.31391e+12 8.4066e+12 8.40297e+12 1.19519e+13
 4500 9.11832e+12 8.99824e+12 9.00765e+12 9.14092e+12 9.06652e+12 8.94183e+12 9.04976e+12 9.04641e+12 1.29144e+13
 4750 9.77233e+12 9.64603e+12 9.65231e+12 9.80772e+12 9.71412e+12 9.57621e+12 9.69935e+12 9.6957e+12 1.38924e+13
 5000 1.04329e+13 1.02986e+13 1.03013e+13 1.04813e+13 1.03651e+13 1.02185e+13 1.03549e+13 1.03507e+13 1.48804e+13
 5250 1.10998e+13 1.09561e+13 1.09542e+13 1.11593e+13 1.10196e+13 1.08688e+13 1.10159e+13 1.10109e+13 1.58752e+13
 5500 1.17726e+13 1.16182e+13 1.16116e+13 1.18422e+13 1.16755e+13 1.15252e+13 1.16809e+13 1.16756e+13 1.68784e+13
 5750 1.245e+13 1.22835e+13 1.22707e+13 1.25299e+13 1.23326e+13 1.21858e+13 1.23494e+13 1.23435e+13 1.78886e+13
 6000 1.31302e+13 1.2952e+13 1.29289e+13 1.32224e+13 1.2989e+13 1.2849e+13 1.30201e+13 1.30136e+13 1.89081e+13
 6250 1.38156e+13 1.36258e+13 1.35896e+13 1.39208e+13 1.36447e+13 1.35164e+13 1.3694e+13 1.36872e+13 1.99373e+13
 6250 1.42337e+13 1.34904e+13 1.34166e+13 1.41769e+13 1.38286e+13 1.37578e+13 1.39211e+13 1.38381e+13 1.99491e+13
 12500 3.26363e+13 3.13532e+13 3.05335e+13 3.22431e+13 2.9781e+13 3.14513e+13 3.11585e+13 3.12981e+13 4.74951e+13
 18750 5.31721e+13 4.95371e+13 4.8901e+13 5.19018e+13 4.56722e+13 4.95282e+13 4.90341e+13 4.96351e+13 7.63106e+13
 25000 7.4284e+13 6.82936e+13 6.83093e+13 7.03795e+13 6.17277e+13 6.79108e+13 6.66726e+13 6.81218e+13 1.05279e+14
 31250 9.65112e+13 8.83358e+13 8.87852e+13 9.02864e+13 7.71195e+13 8.73328e+13 8.49129e+13 8.7432e+13 1.34354e+14
 37500 1.19664e+14 1.09614e+14 1.08524e+14 1.11556e+14 9.27063e+13 1.07117e+14 1.03793e+14 1.07316e+14 1.64848e+14
 43750 1.42435e+14 1.31307e+14 1.28526e+14 1.33829e+14 1.07689e+14 1.26821e+14 1.2278e+14 1.27304e+14 1.95611e+14
 50000 1.65131e+14 1.52905e+14 1.47188e+14 1.55555e+14 1.23152e+14 1.46933e+14 1.4188e+14 1.47158e+14 2.25876e+14
 56250 1.87962e+14 1.74112e+14 1.64472e+14 1.7686e+14 1.39025e+14 1.677e+14 1.61195e+14 1.66923e+14 2.562e+14
 62500 2.10499e+14 1.95069e+14 1.80714e+14 1.98108e+14 1.54281e+14 1.89002e+14 1.80464e+14 1.86449e+14 2.85333e+14
 68750 2.34144e+14 2.16238e+14 1.96986e+14 2.20433e+14 1.69879e+14 2.10382e+14 2.00232e+14 2.06455e+14 3.15043e+14
 75000 2.59586e+14 2.38332e+14 2.13109e+14 2.43641e+14 1.84815e+14 2.32071e+14 2.20176e+14 2.26909e+14 3.4614e+14
 81250 2.86402e+14 2.61114e+14 2.30277e+14 2.67658e+14 2.00036e+14 2.54621e+14 2.40772e+14 2.48169e+14 3.77917e+14
 87500 3.13146e+14 2.84428e+14 2.46913e+14 2.91892e+14 2.14834e+14 2.77215e+14 2.61313e+14 2.69386e+14 4.10396e+14
 93750 3.39134e+14 3.08643e+14 2.64858e+14 3.15808e+14 2.2889e+14 3.00427e+14 2.81709e+14 2.9071e+14 4.43534e+14
 100000 3.64716e+14 3.33222e+14 2.83502e+14 3.3849e+14 2.43626e+14 3.25513e+14 3.02543e+14 3.12384e+14 4.77711e+14
 106250 3.91152e+14 3.57812e+14 3.03329e+14 3.6164e+14 2.58862e+14 3.50791e+14 3.23764e+14 3.34565e+14 5.13226e+14
 112500 4.1826e+14 3.82986e+14 3.239e+14 3.84299e+14 2.74711e+14 3.76089e+14 3.45033e+14 3.57039e+14 5.48465e+14
 118750 4.45152e+14 4.08029e+14 3.44331e+14 4.07369e+14 2.91141e+14 4.0204e+14 3.6685e+14 3.79778e+14 5.82722e+14
 125000 4.715e+14 4.32136e+14 3.63799e+14 4.29636e+14 3.06623e+14 4.2822e+14 3.8816e+14 4.01887e+14 6.16923e+14
 131250 4.98402e+14 4.56591e+14 3.83636e+14 4.51464e+14 3.21297e+14 4.5479e+14 4.09184e+14 4.23994e+14 6.52273e+14
 137500 5.24864e+14 4.81181e+14 4.03756e+14 4.72345e+14 3.36054e+14 4.80601e+14 4.29667e+14 4.45774e+14 6.88086e+14
 143750 5.51472e+14 5.04783e+14 4.2325e+14 4.94117e+14 3.5051e+14 5.05435e+14 4.50021e+14 4.6728e+14 7.25677e+14
 150000 5.78234e+14 5.27366e+14 4.41199e+14 5.15523e+14 3.64763e+14 5.29656e+14 4.69981e+14 4.88228e+14 7.63038e+14
 156250 6.04796e+14 5.50722e+14 4.58965e+14 5.35855e+14 3.79393e+14 5.5413e+14 4.89793e+14 5.0914e+14 7.99966e+14
 156250 5.29399e+14 5.05588e+14 4.83104e+14 4.55468e+14 3.56616e+14 6.12122e+14 4.74735e+14 4.87253e+14 6.90322e+14
 312500 1.21801e+15 1.06564e+15 8.05887e+14 9.69108e+14 7.62909e+14 1.2627e+15 9.9824e+14 1.01088e+15 1.66382e+15
 468750 1.89169e+15 1.45263e+15 1.19389e+15 1.45933e+15 1.14116e+15 1.79196e+15 1.46415e+15 1.48359e+15 2.8593e+15
 625000 2.62419e+15 1.73989e+15 1.56344e+15 1.90273e+15 1.46292e+15 2.07742e+15 1.81436e+15 1.87895e+15 4.03798e+15
 781250 3.39832e+15 2.21173e+15 1.94713e+15 2.26158e+15 1.70954e+15 2.31044e+15 2.09385e+15 2.26393e+15 4.9861e+15
 937500 4.24963e+15 2.81571e+15 2.04179e+15 2.67609e+15 1.7963e+15 2.65957e+15 2.37732e+15 2.64068e+15 5.69905e+15
 1.09375e+06 5.32038e+15 3.23907e+15 2.19912e+15 2.88423e+15 1.98681e+15 3.28397e+15 2.71834e+15 3.06548e+15 6.4954e+15
 1.25e+06 6.48199e+15 3.83936e+15 2.45986e+15 3.05304e+15 2.32735e+15 3.72695e+15 3.03578e+15 3.52563e+15 7.52093e+15
 1.40625e+06 7.76484e+15 4.68369e+15 2.86755e+15 3.16729e+15 2.64383e+15 4.33099e+15 3.38071e+15 4.07057e+15 8.50969e+15
 1.5625e+06 9.37723e+15 5.44667e+15 3.27359e+15 3.33289e+15 3.03617e+15 4.74975e+15 3.70627e+15 4.63676e+15 9.47405e+15
 1.71875e+06 1.11376e+16 6.08393e+15 3.7987e+15 3.49099e+15 3.37224e+15 5.10352e+15 3.98892e+15 5.19605e+15 1.03453e+16
 1.875e+06 1.32059e+16 6.74436e+15 4.26532e+15 3.69443e+15 3.59124e+15 5.68786e+15 4.32451e+15 5.82345e+15 1.11418e+16
 2.03125e+06 1.58289e+16 7.79958e+15 4.50712e+15 3.82914e+15 3.65892e+15 6.20329e+15 4.56378e+15 6.48968e+15 1.1902e+16
 2.1875e+06 1.86734e+16 9.04668e+15 4.83663e+15 3.8935e+15 3.91477e+15 6.42088e+15 4.74305e+15 7.18672e+15 1.2624e+16
 2.34375e+06 2.11792e+16 1.0167e+16 4.97971e+15 4.13651e+15 4.17355e+15 6.75108e+15 5.02038e+15 7.85568e+15 1.33582e+16
 2.5e+06 2.35823e+16 1.12127e+16 5.18524e+15 4.61353e+15 4.45632e+15 7.16874e+15 5.41286e+15 8.57842e+15 1.42895e+16
 2.65625e+06 2.60461e+16 1.24791e+16 5.18794e+15 5.23199e+15 4.85802e+15 7.53704e+15 5.87569e+15 9.35382e+15 1.52593e+16
 2.8125e+06 2.89536e+16 1.41054e+16 5.6444e+15 5.85481e+15 5.10798e+15 7.74259e+15 6.23513e+15 1.02349e+16 1.64648e+16
 2.96875e+06 3.21384e+16 1.58273e+16 6.016e+15 6.45412e+15 5.18322e+15 7.68757e+15 6.44163e+15 1.10625e+16 1.77231e+16
 3.125e+06 3.56625e+16 1.77614e+16 6.43835e+15 7.08575e+15 5.28738e+15 7.69598e+15 6.6897e+15 1.19955e+16 1.88167e+16
 3.28125e+06 3.93376e+16 1.9735e+16 6.57351e+15 7.46596e+15 5.46625e+15 7.90755e+15 6.94659e+15 1.29208e+16 1.97043e+16
 3.4375e+06 4.32755e+16 2.20626e+16 7.19049e+15 7.57465e+15 5.56328e+15 8.09809e+15 7.07867e+15 1.39177e+16 2.04749e+16
 3.59375e+06 4.69647e+16 2.42324e+16 7.19924e+15 7.56048e+15 6.01308e+15 8.18339e+15 7.25232e+15 1.48042e+16 2.10064e+16
 3.75e+06 5.06252e+16 2.62967e+16 7.46906e+15 7.69673e+15 6.33354e+15 8.28066e+15 7.43697e+15 1.57143e+16 2.11345e+16
 3.90625e+06 5.44677e+16 2.86907e+16 7.52862e+15 7.78884e+15 6.52469e+15 8.23517e+15 7.51623e+15 1.66013e+16 2.08751e+16
 3.90625e+06 4.29458e+16 3.02464e+16 1.2196e+15 2.58009e+15 1.55014e+16 1.97348e+15 6.68499e+15 1.39326e+16 2.39948e+15
 7.8125e+06 1.56332e+17 1.1361e+17 3.40213e+15 8.07018e+15 5.07995e+14 2.51958e+14 2.94338e+15 3.82119e+16 9.59465e+15
